Data written for 2 signals in a group signal
Ref Chan:Resp Chan	 0-Z:0-Z	 0-Z:0-Z
Channel Names	I1	I2
Channel Comments		

   	 X1	 X2
Time	 Real	Real
   	EU	EU

Units:
sec	N	m/s²
0.0000000000000e+000	       0.2170934	      0.02072382
4.8828125000000e-004	       0.2397751	     0.002225793
9.7656250000000e-004	       0.2616966	     -0.01669572
1.4648437500000e-003	       0.2832262	     -0.02601285
1.9531250000000e-003	       0.3032114	     -0.01282968
2.4414062500000e-003	       0.3249502	     -0.04744908
2.9296875000000e-003	       0.3428591	      -0.0498458
3.4179687500000e-003	       0.3608378	     -0.07493073
3.9062500000000e-003	       0.3772272	     -0.08676904
4.3945312500000e-003	       0.3918152	     -0.05754503
4.8828125000000e-003	       0.4098551	     -0.09134997
5.3710937500000e-003	       0.4250275	       -0.095608
5.8593750000000e-003	       0.4394427	      -0.0889635
6.3476562500000e-003	       0.4538088	      -0.1056046
6.8359375000000e-003	       0.4660565	      -0.1084411
7.3242187500000e-003	       0.4775934	      -0.1128347
7.8125000000000e-003	       0.4873419	      -0.1234068
8.3007812500000e-003	       0.4964551	      -0.1213802
8.7890625000000e-003	       0.5046259	      -0.1357265
9.2773437500000e-003	       0.5102849	      -0.1217349
9.7656250000000e-003	        0.515505	      -0.1346758
1.0253906250000e-002	       0.5190355	      -0.1354754
1.0742187500000e-002	       0.5202328	       -0.112178
1.1230468750000e-002	       0.5171615	      -0.1523266
1.1718750000000e-002	       0.5091919	      -0.1406988
1.2207031250000e-002	       0.4947569	      -0.1180196
1.2695312500000e-002	       0.4781819	      -0.1116399
1.3183593750000e-002	       0.4653146	      -0.1167976
1.3671875000000e-002	       0.4524229	      -0.1126596
1.4160156250000e-002	       0.4424847	      -0.0921852
1.4648437500000e-002	       0.4312364	     -0.09850781
1.5136718750000e-002	        0.416934	     -0.09051979
1.5625000000000e-002	       0.4058202	     -0.08110395
1.6113281250000e-002	       0.3934996	     -0.06126534
1.6601562500000e-002	       0.3816323	     -0.07515746
1.7089843750000e-002	       0.3698899	     -0.06251786
1.7578125000000e-002	        0.357737	     -0.05118935
1.8066406250000e-002	       0.3445185	     -0.05367859
1.8554687500000e-002	       0.3303387	     -0.02730007
1.9042968750000e-002	       0.3157432	     -0.02846484
1.9531250000000e-002	       0.3006182	      -0.0362189
2.0019531250000e-002	       0.2841428	     -0.02193889
2.0507812500000e-002	       0.2675952	    -0.002617181
2.0996093750000e-002	       0.2497442	      0.01040258
2.1484375000000e-002	       0.2308565	      0.02245186
2.1972656250000e-002	       0.2141289	      0.03051749
2.2460937500000e-002	        0.196847	      0.03657138
2.2949218750000e-002	       0.1749857	       0.0462139
2.3437500000000e-002	       0.1538312	      0.06596539
2.3925781250000e-002	       0.1314129	      0.09726547
2.4414062500000e-002	       0.1071807	      0.08921653
2.4902343750000e-002	      0.08675251	       0.1091695
2.5390625000000e-002	      0.06468342	       0.1152247
2.5878906250000e-002	      0.04135642	       0.1275392
2.6367187500000e-002	      0.01785562	       0.1603054
2.6855468750000e-002	     -0.00697926	       0.1573507
2.7343750000000e-002	      -0.0301003	        0.177685
2.7832031250000e-002	     -0.05360445	       0.1837335
2.8320312500000e-002	     -0.07711214	       0.1920079
2.8808593750000e-002	     -0.09979782	       0.2135779
2.9296875000000e-002	      -0.1229945	       0.2505425
2.9785156250000e-002	      -0.1454451	       0.2365022
3.0273437500000e-002	      -0.1687954	        0.253405
3.0761718750000e-002	      -0.1914905	       0.2814232
3.1250000000000e-002	      -0.2141217	       0.2778112
3.1738281250000e-002	      -0.2359069	       0.2938337
3.2226562500000e-002	      -0.2581527	        0.316543
3.2714843750000e-002	      -0.2795104	        0.310908
3.3203125000000e-002	      -0.2987689	       0.3308643
3.3691406250000e-002	      -0.3171484	       0.3323324
3.4179687500000e-002	      -0.3330129	       0.3455245
3.4667968750000e-002	      -0.3517374	        0.341756
3.5156250000000e-002	      -0.3702249	       0.3344776
3.5644531250000e-002	      -0.3856757	       0.3708973
3.6132812500000e-002	      -0.4002485	       0.3948289
3.6621093750000e-002	      -0.4145558	       0.3884773
3.7109375000000e-002	      -0.4275493	       0.3970425
3.7597656250000e-002	      -0.4403434	       0.4006272
3.8085937500000e-002	      -0.4517374	       0.3957976
3.8574218750000e-002	      -0.4618623	       0.3999604
3.9062500000000e-002	      -0.4712535	        0.410008
3.9550781250000e-002	      -0.4798114	       0.4262279
4.0039062500000e-002	      -0.4869689	        0.407627
4.0527343750000e-002	      -0.4920044	       0.4208601
4.1015625000000e-002	      -0.4963597	       0.4160732
4.1503906250000e-002	      -0.4977271	       0.4208981
4.1992187500000e-002	      -0.4968667	       0.4294665
4.2480468750000e-002	      -0.4884897	       0.4325998
4.2968750000000e-002	      -0.4760333	       0.4217338
4.3457031250000e-002	      -0.4627727	        0.396564
4.3945312500000e-002	       -0.450282	       0.4132524
4.4433593750000e-002	      -0.4394312	       0.3968605
4.4921875000000e-002	      -0.4256861	       0.4112874
4.5410156250000e-002	      -0.4154236	       0.4124277
4.5898437500000e-002	      -0.4042118	       0.3914617
4.6386718750000e-002	         -0.3945	       0.4108448
4.6875000000000e-002	      -0.3858717	       0.3801187
4.7363281250000e-002	      -0.3764435	       0.3746854
4.7851562500000e-002	      -0.3660427	       0.3722569
4.8339843750000e-002	      -0.3539402	        0.373048
4.8828125000000e-002	      -0.3429325	       0.3690532
4.9316406250000e-002	      -0.3314689	       0.3651801
4.9804687500000e-002	      -0.3191819	       0.3577135
5.0292968750000e-002	      -0.3062461	       0.3362894
5.0781250000000e-002	      -0.2920916	        0.330554
5.1269531250000e-002	      -0.2765645	       0.3233774
5.1757812500000e-002	      -0.2598835	       0.3058702
5.2246093750000e-002	      -0.2457532	       0.2854949
5.2734375000000e-002	       -0.229273	       0.2840693
5.3222656250000e-002	      -0.2093243	       0.2734211
5.3710937500000e-002	      -0.1902772	       0.2390943
5.4199218750000e-002	      -0.1680398	       0.2211602
5.4687500000000e-002	      -0.1472248	       0.2484127
5.5175781250000e-002	      -0.1282996	       0.2284091
5.5664062500000e-002	      -0.1070553	       0.2110896
5.6152343750000e-002	     -0.08567521	       0.1916834
5.6640625000000e-002	      -0.0628542	       0.1820033
5.7128906250000e-002	     -0.04099612	       0.1724561
5.7617187500000e-002	     -0.01871518	       0.1586502
5.8105468750000e-002	     0.004019977	       0.1318527
5.8593750000000e-002	      0.02708476	       0.1096966
5.9082031250000e-002	      0.05028322	      0.09061418
5.9570312500000e-002	      0.07311998	       0.1049646
6.0058593750000e-002	      0.09750345	      0.08620637
6.0546875000000e-002	        0.120459	       0.0797306
6.1035156250000e-002	        0.143675	      0.04376651
6.1523437500000e-002	       0.1669958	      0.03253175
6.2011718750000e-002	       0.1900162	       0.0166916
6.2500000000000e-002	       0.2120303	     0.001827887
6.2988281250000e-002	       0.2320782	    -0.002088145
6.3476562500000e-002	       0.2534042	    -0.001781729
6.3964843750000e-002	       0.2724492	     -0.01931078
6.4453125000000e-002	       0.2919881	     -0.03503627
6.4941406250000e-002	       0.3146011	     -0.04611896
6.5429687500000e-002	       0.3349751	     -0.04075917
6.5917968750000e-002	       0.3532757	     -0.04787042
6.6406250000000e-002	       0.3714019	     -0.09279148
6.6894531250000e-002	        0.388893	     -0.07448475
6.7382812500000e-002	       0.4049616	     -0.08548898
6.7871093750000e-002	       0.4202103	       -0.107449
6.8359375000000e-002	        0.434251	      -0.1005992
6.8847656250000e-002	       0.4482196	      -0.1072992
6.9335937500000e-002	       0.4601056	      -0.1200359
6.9824218750000e-002	       0.4708827	      -0.1287568
7.0312500000000e-002	       0.4812669	      -0.1204163
7.0800781250000e-002	       0.4908372	      -0.1326751
7.1289062500000e-002	       0.4986049	      -0.1110337
7.1777343750000e-002	       0.5047142	      -0.1259408
7.2265625000000e-002	       0.5082123	      -0.1353592
7.2753906250000e-002	       0.5111175	      -0.1469706
7.3242187500000e-002	       0.5135801	      -0.1401576
7.3730468750000e-002	       0.5131484	      -0.1147079
7.4218750000000e-002	       0.5103851	      -0.1215143
7.4707031250000e-002	       0.4989891	      -0.1474578
7.5195312500000e-002	       0.4846491	       -0.117968
7.5683593750000e-002	       0.4695871	      -0.1176998
7.6171875000000e-002	       0.4550367	      -0.1278072
7.6660156250000e-002	       0.4423201	      -0.1241691
7.7148437500000e-002	       0.4293556	      -0.1048038
7.7636718750000e-002	       0.4164717	      -0.1046247
7.8125000000000e-002	       0.4047003	      -0.1022375
7.8613281250000e-002	       0.3927403	     -0.08575091
7.9101562500000e-002	        0.381645	     -0.07289986
7.9589843750000e-002	        0.370213	     -0.06788062
8.0078125000000e-002	       0.3576731	     -0.07802617
8.0566406250000e-002	       0.3451929	     -0.07610542
8.1054687500000e-002	       0.3327531	     -0.04586724
8.1542968750000e-002	       0.3182578	     -0.01376381
8.2031250000000e-002	       0.3053125	     -0.01989515
8.2519531250000e-002	       0.2907324	     -0.01757194
8.3007812500000e-002	       0.2722665	     -0.01289427
8.3496093750000e-002	       0.2537092	     0.001043994
8.3984375000000e-002	       0.2341218	       0.0450176
8.4472656250000e-002	       0.2149443	      0.04161528
8.4960937500000e-002	       0.1977725	      0.04817735
8.5449218750000e-002	       0.1786052	      0.06205403
8.5937500000000e-002	       0.1591269	      0.06260974
8.6425781250000e-002	         0.13882	      0.09242868
8.6914062500000e-002	       0.1173418	      0.08497196
8.7402343750000e-002	      0.09551759	      0.08132999
8.7890625000000e-002	      0.07182014	        0.115445
8.8378906250000e-002	      0.04787823	       0.1210137
8.8867187500000e-002	      0.02521391	       0.1355347
8.9355468750000e-002	     0.001903596	       0.1551854
8.9843750000000e-002	     -0.02204767	       0.1709773
9.0332031250000e-002	     -0.04515033	       0.1796445
9.0820312500000e-002	     -0.06879852	        0.201969
9.1308593750000e-002	     -0.09255716	       0.2125679
9.1796875000000e-002	      -0.1168131	       0.2432475
9.2285156250000e-002	      -0.1409625	       0.2228811
9.2773437500000e-002	      -0.1636596	       0.2239836
9.3261718750000e-002	      -0.1865238	       0.2603194
9.3750000000000e-002	      -0.2080192	       0.2698251
9.4238281250000e-002	       -0.227725	       0.2767746
9.4726562500000e-002	      -0.2509575	       0.2722257
9.5214843750000e-002	      -0.2733614	       0.3074226
9.5703125000000e-002	      -0.2934833	       0.3088273
9.6191406250000e-002	      -0.3126559	       0.3329306
9.6679687500000e-002	      -0.3314854	       0.3335838
9.7167968750000e-002	       -0.350036	       0.3336365
9.7656250000000e-002	      -0.3687441	       0.3417998
9.8144531250000e-002	      -0.3858111	       0.3434692
9.8632812500000e-002	      -0.4017597	       0.3660757
9.9121093750000e-002	      -0.4175757	       0.3854391
9.9609375000000e-002	      -0.4319922	       0.3878568
1.0009765625000e-001	       -0.444387	       0.4065813
1.0058593750000e-001	       -0.456589	       0.3967607
1.0107421875000e-001	      -0.4663777	        0.430198
1.0156250000000e-001	      -0.4762968	       0.4245931
1.0205078125000e-001	       -0.484467	       0.4148984
1.0253906250000e-001	      -0.4899674	       0.4364084
1.0302734375000e-001	      -0.4974888	       0.4014429
1.0351562500000e-001	      -0.5030883	       0.4171383
1.0400390625000e-001	      -0.5085345	       0.4162069
1.0449218750000e-001	      -0.5079155	       0.4248335
1.0498046875000e-001	      -0.5022168	       0.4337318
1.0546875000000e-001	      -0.4920349	       0.4302617
1.0595703125000e-001	      -0.4765861	       0.4102404
1.0644531250000e-001	       -0.463145	       0.4088151
1.0693359375000e-001	      -0.4492913	       0.4254281
1.0742187500000e-001	      -0.4363622	       0.4196016
1.0791015625000e-001	      -0.4259782	        0.423369
1.0839843750000e-001	      -0.4136843	       0.4066797
1.0888671875000e-001	      -0.4015708	       0.4094871
1.0937500000000e-001	      -0.3918108	       0.3903052
1.0986328125000e-001	        -0.38219	       0.3901272
1.1035156250000e-001	       -0.371619	       0.3797449
1.1083984375000e-001	      -0.3600204	       0.3485599
1.1132812500000e-001	      -0.3480936	       0.3284756
1.1181640625000e-001	       -0.336999	       0.3516662
1.1230468750000e-001	      -0.3261286	       0.3433825
1.1279296875000e-001	       -0.311098	       0.3265066
1.1328125000000e-001	       -0.295205	       0.3293974
1.1376953125000e-001	      -0.2778932	       0.3074667
1.1425781250000e-001	      -0.2580239	       0.2939164
1.1474609375000e-001	      -0.2412664	       0.3025628
1.1523437500000e-001	      -0.2244205	       0.2952631
1.1572265625000e-001	      -0.2058438	       0.2868414
1.1621093750000e-001	      -0.1873461	       0.2435659
1.1669921875000e-001	      -0.1682988	       0.2639616
1.1718750000000e-001	      -0.1478298	       0.2418046
1.1767578125000e-001	      -0.1271882	       0.2156145
1.1816406250000e-001	      -0.1057888	       0.2152241
1.1865234375000e-001	      -0.0839849	       0.1980537
1.1914062500000e-001	     -0.06246148	        0.185078
1.1962890625000e-001	     -0.03951863	       0.1679056
1.2011718750000e-001	     -0.01684771	        0.140158
1.2060546875000e-001	     0.006507064	       0.1234045
1.2109375000000e-001	       0.0308865	       0.1322594
1.2158203125000e-001	      0.05438647	       0.1038132
1.2207031250000e-001	      0.07939802	      0.08944147
1.2255859375000e-001	       0.1024532	       0.0669918
1.2304687500000e-001	       0.1244106	      0.06988167
1.2353515625000e-001	        0.147064	      0.06333288
1.2402343750000e-001	        0.168089	      0.04367845
1.2451171875000e-001	       0.1915549	      0.02697628
1.2500000000000e-001	       0.2170161	      0.00737953
1.2548828125000e-001	        0.239472	      0.00462037
1.2597656250000e-001	        0.261566	     -0.02472137
1.2646484375000e-001	       0.2826913	      -0.0354158
1.2695312500000e-001	       0.3021389	     -0.03210086
1.2744140625000e-001	       0.3219525	     -0.04510142
1.2792968750000e-001	       0.3412193	     -0.06145885
1.2841796875000e-001	       0.3590075	     -0.06836394
1.2890625000000e-001	        0.377278	     -0.07220281
1.2939453125000e-001	       0.3950425	     -0.08773378
1.2988281250000e-001	       0.4107475	     -0.08167866
1.3037109375000e-001	       0.4255028	      -0.0931546
1.3085937500000e-001	       0.4388814	      -0.1085358
1.3134765625000e-001	       0.4520511	      -0.1233305
1.3183593750000e-001	       0.4650009	      -0.1108812
1.3232421875000e-001	       0.4742712	       -0.127985
1.3281250000000e-001	       0.4843566	      -0.1178244
1.3330078125000e-001	       0.4935523	      -0.1455825
1.3378906250000e-001	       0.5029404	      -0.1511045
1.3427734375000e-001	       0.5111419	      -0.1212292
1.3476562500000e-001	       0.5135977	      -0.1321011
1.3525390625000e-001	       0.5151743	       -0.135754
1.3574218750000e-001	       0.5144734	      -0.1387128
1.3623046875000e-001	       0.5105316	      -0.1236756
1.3671875000000e-001	       0.5004178	      -0.1319243
1.3720703125000e-001	       0.4866599	      -0.1397535
1.3769531250000e-001	       0.4726867	      -0.1275377
1.3818359375000e-001	       0.4589326	      -0.1393252
1.3867187500000e-001	        0.446373	      -0.1331844
1.3916015625000e-001	       0.4335539	      -0.1064521
1.3964843750000e-001	       0.4215681	      -0.1037782
1.4013671875000e-001	       0.4107028	       -0.102058
1.4062500000000e-001	       0.3994352	      -0.1082864
1.4111328125000e-001	       0.3883853	     -0.07976855
1.4160156250000e-001	       0.3776527	     -0.07814914
1.4208984375000e-001	       0.3683948	     -0.07710565
1.4257812500000e-001	       0.3559558	     -0.08073408
1.4306640625000e-001	       0.3422428	     -0.05051838
1.4355468750000e-001	          0.3281	     -0.04046325
1.4404296875000e-001	       0.3106348	     -0.04133692
1.4453125000000e-001	       0.2972394	     -0.02217095
1.4501953125000e-001	        0.283306	     -0.01261052
1.4550781250000e-001	       0.2675238	     -0.01993659
1.4599609375000e-001	       0.2505566	     0.008398273
1.4648437500000e-001	       0.2315775	      0.02216726
1.4697265625000e-001	       0.2127366	      0.02397479
1.4746093750000e-001	       0.1934347	      0.05081918
1.4794921875000e-001	       0.1739239	      0.05546147
1.4843750000000e-001	       0.1541076	      0.06313707
1.4892578125000e-001	       0.1336983	      0.07367465
1.4941406250000e-001	       0.1121967	      0.08238114
1.4990234375000e-001	        0.088931	       0.1007853
1.5039062500000e-001	      0.06662315	       0.1278797
1.5087890625000e-001	      0.04423528	       0.1355364
1.5136718750000e-001	      0.02125183	       0.1508464
1.5185546875000e-001	    -0.002527381	       0.1469239
1.5234375000000e-001	     -0.02682028	       0.1759702
1.5283203125000e-001	     -0.04991655	        0.194299
1.5332031250000e-001	     -0.07304554	       0.1863673
1.5380859375000e-001	     -0.09435987	       0.2135387
1.5429687500000e-001	      -0.1159613	       0.2162519
1.5478515625000e-001	      -0.1398436	       0.2335576
1.5527343750000e-001	      -0.1631502	       0.2561431
1.5576171875000e-001	      -0.1845437	       0.2568919
1.5625000000000e-001	      -0.2064541	       0.2919557
1.5673828125000e-001	       -0.228734	       0.2912122
1.5722656250000e-001	      -0.2503806	       0.3004405
1.5771484375000e-001	      -0.2714097	       0.3110444
1.5820312500000e-001	      -0.2904607	       0.3119415
1.5869140625000e-001	      -0.3097265	       0.3301488
1.5917968750000e-001	      -0.3288018	       0.3462584
1.5966796875000e-001	      -0.3464406	       0.3448702
1.6015625000000e-001	      -0.3642507	       0.3490154
1.6064453125000e-001	      -0.3810879	       0.3660967
1.6113281250000e-001	      -0.3965288	       0.3822478
1.6162109375000e-001	      -0.4115804	       0.3877776
1.6210937500000e-001	       -0.423616	       0.3716148
1.6259765625000e-001	      -0.4357545	       0.3896871
1.6308593750000e-001	      -0.4479416	        0.410142
1.6357421875000e-001	      -0.4597953	       0.4034789
1.6406250000000e-001	      -0.4710063	       0.3901689
1.6455078125000e-001	      -0.4775905	       0.4098155
1.6503906250000e-001	      -0.4842026	       0.4049617
1.6552734375000e-001	      -0.4897094	       0.4347438
1.6601562500000e-001	      -0.4938735	       0.4174704
1.6650390625000e-001	      -0.4969991	       0.4268601
1.6699218750000e-001	      -0.4969049	       0.4384835
1.6748046875000e-001	      -0.4930132	       0.4169918
1.6796875000000e-001	      -0.4829864	       0.4096034
1.6845703125000e-001	      -0.4687129	       0.4114672
1.6894531250000e-001	      -0.4549788	       0.4033496
1.6943359375000e-001	      -0.4413871	       0.4043034
1.6992187500000e-001	      -0.4296397	       0.3958921
1.7041015625000e-001	      -0.4182807	       0.3901768
1.7089843750000e-001	      -0.4075253	       0.3813228
1.7138671875000e-001	      -0.3973001	       0.3801654
1.7187500000000e-001	      -0.3897907	       0.3782776
